T,3.7,Nsite,400
energy,hist_E,hist_M,hist_M2,hist_M4
-408.0,1.00000000e+00,6.60000000e+01,4.35600000e+03,1.89747360e+07
-400.0,5.00000000e+00,9.40000000e+01,9.91120000e+03,1.41526442e+08
-396.0,1.50000000e+01,9.53333333e+01,1.22152000e+04,2.96149699e+08
-392.0,1.60000000e+01,1.02000000e+02,1.35605000e+04,3.10790486e+08
-388.0,2.50000000e+01,9.21600000e+01,1.25638400e+04,3.29320609e+08
-384.0,2.90000000e+01,7.46896552e+01,8.83793103e+03,1.86042913e+08
-380.0,3.80000000e+01,7.04736842e+01,7.60389474e+03,1.51308923e+08
-376.0,6.00000000e+01,6.64666667e+01,6.67186667e+03,1.14388854e+08
-372.0,9.90000000e+01,7.51515152e+01,7.88242424e+03,1.30985011e+08
-368.0,1.04000000e+02,7.31538462e+01,7.67761538e+03,1.40533388e+08
-364.0,1.92000000e+02,6.81666667e+01,6.48145833e+03,9.13880728e+07
-360.0,2.49000000e+02,6.01285141e+01,5.35800803e+03,7.60381013e+07
-356.0,3.34000000e+02,6.49520958e+01,6.13344910e+03,8.58517955e+07
-352.0,4.54000000e+02,6.08149780e+01,5.47944493e+03,7.09609930e+07
-348.0,6.78000000e+02,6.22182891e+01,5.54620649e+03,6.83002674e+07
-344.0,9.33000000e+02,6.07974277e+01,5.36385852e+03,6.83078486e+07
-340.0,1.21900000e+03,5.84708778e+01,4.98247744e+03,6.12000941e+07
-336.0,1.65600000e+03,5.43623188e+01,4.39833816e+03,4.97085087e+07
-332.0,2.16800000e+03,5.38800738e+01,4.30708856e+03,4.66238886e+07
-328.0,2.78300000e+03,5.40122170e+01,4.34793245e+03,4.81821892e+07
-324.0,3.68300000e+03,5.15655715e+01,4.00114689e+03,4.09757389e+07
-320.0,4.62100000e+03,5.17935512e+01,4.00406059e+03,4.06868879e+07
-316.0,5.83500000e+03,4.98426735e+01,3.68985775e+03,3.44454817e+07
-312.0,7.27100000e+03,4.89487003e+01,3.59145592e+03,3.33303010e+07
-308.0,8.82500000e+03,4.84108782e+01,3.49714176e+03,3.09353657e+07
-304.0,1.08080000e+04,4.77842339e+01,3.41116802e+03,2.95154633e+07
-300.0,1.31970000e+04,4.62887020e+01,3.21479003e+03,2.66083515e+07
-296.0,1.58470000e+04,4.53131823e+01,3.08371073e+03,2.46862972e+07
-292.0,1.84640000e+04,4.44951256e+01,2.97837890e+03,2.29467580e+07
-288.0,2.18060000e+04,4.36632120e+01,2.86614400e+03,2.10006277e+07
-284.0,2.45300000e+04,4.27743987e+01,2.77600978e+03,2.03346607e+07
-280.0,2.76410000e+04,4.16826453e+01,2.64498983e+03,1.87654563e+07
-276.0,3.06890000e+04,4.10146958e+01,2.56700055e+03,1.76929731e+07
-272.0,3.39560000e+04,4.00358110e+01,2.45392155e+03,1.63274885e+07
-268.0,3.70020000e+04,3.92622020e+01,2.36923864e+03,1.53090517e+07
-264.0,4.02080000e+04,3.85163152e+01,2.28181377e+03,1.42589384e+07
-260.0,4.19590000e+04,3.80130604e+01,2.22261856e+03,1.35102679e+07
-256.0,4.41800000e+04,3.74094613e+01,2.15247343e+03,1.26514562e+07
-252.0,4.54030000e+04,3.66801313e+01,2.07231505e+03,1.19075740e+07
-248.0,4.69400000e+04,3.63340009e+01,2.02076515e+03,1.11524847e+07
-244.0,4.69270000e+04,3.58843310e+01,1.95986686e+03,1.03660524e+07
-240.0,4.68230000e+04,3.51405933e+01,1.87918826e+03,9.53518130e+06
-236.0,4.52080000e+04,3.45306141e+01,1.82265104e+03,9.09638541e+06
-232.0,4.35280000e+04,3.38424003e+01,1.75430840e+03,8.38413912e+06
-228.0,4.09920000e+04,3.32484875e+01,1.69855786e+03,7.93719151e+06
-224.0,3.82630000e+04,3.26089956e+01,1.63959658e+03,7.46617393e+06
-220.0,3.54500000e+04,3.20674753e+01,1.58278499e+03,6.97646342e+06
-216.0,3.22230000e+04,3.17905223e+01,1.55118431e+03,6.74001823e+06
-212.0,2.91720000e+04,3.13946250e+01,1.52134321e+03,6.46317279e+06
-208.0,2.61070000e+04,3.08876547e+01,1.47460650e+03,6.08742190e+06
-204.0,2.30030000e+04,2.99758292e+01,1.39778968e+03,5.56152747e+06
-200.0,1.93070000e+04,2.99199254e+01,1.38888900e+03,5.42132870e+06
-196.0,1.64690000e+04,2.91624264e+01,1.32088749e+03,4.94071067e+06
-192.0,1.37740000e+04,2.90872659e+01,1.31717497e+03,4.96212754e+06
-188.0,1.11780000e+04,2.83637502e+01,1.25873001e+03,4.59303592e+06
-184.0,8.96800000e+03,2.77934880e+01,1.19646387e+03,4.04222401e+06
-180.0,7.16900000e+03,2.72316920e+01,1.15017883e+03,3.66906038e+06
-176.0,5.75200000e+03,2.70302503e+01,1.13421627e+03,3.62923343e+06
-172.0,4.48400000e+03,2.65249777e+01,1.10407047e+03,3.47530943e+06
-168.0,3.31800000e+03,2.65780591e+01,1.09293671e+03,3.29354921e+06
-164.0,2.34700000e+03,2.65164039e+01,1.06589007e+03,3.02641154e+06
-160.0,1.81600000e+03,2.60429515e+01,1.04430176e+03,2.94755613e+06
-156.0,1.24800000e+03,2.62900641e+01,1.04727885e+03,2.82059312e+06
-152.0,8.69000000e+02,2.56846951e+01,9.87295742e+02,2.44186554e+06
-148.0,5.33000000e+02,2.56135084e+01,1.00430769e+03,2.65460317e+06
-144.0,3.63000000e+02,2.65619835e+01,1.05058953e+03,2.71009485e+06
-140.0,2.37000000e+02,2.54599156e+01,9.78919831e+02,2.51642768e+06
-136.0,1.85000000e+02,2.52108108e+01,9.16410811e+02,1.85149751e+06
-132.0,1.14000000e+02,2.64035088e+01,1.00200000e+03,2.15963074e+06
-128.0,7.80000000e+01,2.86153846e+01,1.15897436e+03,2.82369805e+06
-124.0,5.70000000e+01,2.41403509e+01,8.45614035e+02,1.61363256e+06
-120.0,2.60000000e+01,2.60769231e+01,9.51846154e+02,1.94181846e+06
-116.0,1.20000000e+01,1.96666667e+01,6.23333333e+02,9.42493333e+05
-112.0,6.00000000e+00,2.13333333e+01,5.48000000e+02,4.25136000e+05
-108.0,1.00000000e+01,2.64000000e+01,7.74400000e+02,7.30604800e+05
-104.0,4.00000000e+00,2.80000000e+01,8.30000000e+02,8.22536000e+05
